Wavelength (nm),IZrO_n,IZrO_k
250.03185889815,2.435887,0.559692
255.032521788313,2.436348,0.524717
260.033137448693,2.435306,0.491015
265.033773638501,2.43289,0.458591
270.034431567722,2.429221,0.427444
275.035066971039,2.424408,0.397568
280.035691000488,2.418555,0.368951
285.036372020278,2.411759,0.341579
290.036972696995,2.404108,0.315436
295.037610157288,2.395685,0.290502
300.038279077218,2.386566,0.266757
305.038923212601,2.376822,0.244181
310.03953004008,2.36652,0.22275
315.040170162342,2.355721,0.202443
320.040800040057,2.344483,0.183237
325.041455892137,2.33286,0.165111
330.042051083589,2.320903,0.148043
335.042681465466,2.30866,0.132012
340.043339072022,2.296177,0.116997
345.043958322029,2.283497,0.102978
350.044673039926,2.270663,0.089936
355.045308362577,2.257714,0.077852
360.045934892661,2.244691,0.06671
365.046556683634,2.231631,0.056492
370.047186984844,2.218574,0.047181
375.047826159283,2.205559,0.038763
380.048437786377,2.192624,0.031223
385.049042516556,2.179811,0.024546
390.04970617304,2.16716,0.018719
395.050400785003,2.154719,0.013729
400.05097423704,2.142536,0.009563
405.051647351583,2.130667,0.006209
410.052232056495,2.119177,0.003656
415.052897487625,2.108147,0.00189
420.053489069294,2.097691,0.0009
425.054202980521,2.088042,0.000663
430.054870145972,2.079445,0.00069
435.055509925406,2.071539,0.000717
440.05602906925,2.064167,0.000744
445.05667653209,2.057239,0.000773
450.057418615827,2.050693,0.000802
455.058062105884,2.044482,0.000831
460.058739112562,2.038569,0.000861
465.059236920303,2.032924,0.000892
470.060019841082,2.027521,0.000924
475.060656434218,2.022338,0.000956
480.061200060085,2.017357,0.000989
485.061855166007,2.012562,0.001022
490.062403914176,2.007937,0.001057
495.063142509116,2.00347,0.001092
500.0637177963,1.99915,0.001128
505.064493477336,1.994966,0.001164
510.064938670861,1.990908,0.001202
515.065670873036,1.986969,0.00124
520.066383957462,1.98314,0.001279
525.066861336617,1.979414,0.001318
530.067660572029,1.975785,0.001359
535.068335562065,1.972247,0.0014
540.068745524834,1.968795,0.001442
545.069560106886,1.965423,0.001485
550.070133942078,1.962126,0.001529
555.070863300818,1.958901,0.001574
560.071508484858,1.955743,0.001619
565.072160626319,1.952648,0.001665
570.072744040556,1.949613,0.001713
575.073263870048,1.946634,0.001761
580.074081073773,1.943709,0.00181
585.07455925956,1.940834,0.00186
590.075220314577,1.938007,0.001911
595.075843376038,1.935225,0.001962
600.076558154435,1.932486,0.002015
605.077281543923,1.929787,0.002069
610.077696346619,1.927127,0.002123
615.078449784053,1.924503,0.002179
620.07906008016,1.921913,0.002236
625.079710265472,1.919356,0.002293
630.080340324684,1.91683,0.002352
635.080949773804,1.914333,0.002411
640.081600080114,1.911864,0.002472
645.082081492595,1.909421,0.002533
650.082911784273,1.907003,0.002596
655.083660522968,1.904608,0.00266
660.084277857153,1.902236,0.002724
665.08476612616,1.899885,0.00279
670.085543985172,1.897553,0.002857
675.086005412665,1.895241,0.002925
680.086678144044,1.892946,0.002994
685.087414944187,1.890669,0.003064
690.088108668842,1.888406,0.003135
695.088693877894,1.886159,0.003208
700.089148448823,1.883926,0.003281
705.089896118651,1.881707,0.003356
710.090616725154,1.8795,0.003432
715.091015515745,1.877304,0.003509
720.091660699778,1.87512,0.003587
725.092346942654,1.872946,0.003666
730.09289843348,1.870781,0.003747
735.093605871264,1.868625,0.003829
740.094373969687,1.866478,0.003912
745.095140838004,1.864338,0.003996
750.095425446261,1.862206,0.004082
755.09613774415,1.86008,0.004169
760.096875572754,1.85796,0.004257
765.097722723649,1.855846,0.004346
770.098324166679,1.853737,0.004437
775.0988251002,1.851632,0.004529
780.09941234608,1.849532,0.004623
785.100315559675,1.847435,0.004717
790.100801570007,1.845342,0.004813
795.101150973037,1.843251,0.004911
800.102206604457,1.841163,0.00501
805.102793446983,1.839077,0.00511
810.103294703166,1.836993,0.005211
815.104142701071,1.83491,0.005314
820.104735311197,1.832828,0.005419
825.105017902783,1.830747,0.005525
830.106072828419,1.828666,0.005632
835.106250433548,1.826585,0.005741
840.107262727286,1.824504,0.005851
845.10747518008,1.822422,0.005963
850.108114556182,1.820339,0.006076
855.109312623137,1.818255,0.006191
860.109441990127,1.81617,0.006307
865.110444603978,1.814083,0.006425
870.110714571407,1.811994,0.006544
875.111682599816,1.809903,0.006665
880.112370476205,1.80781,0.006788
885.113041069959,1.805713,0.006912
890.113353064179,1.803614,0.007038
895.114264223294,1.801512,0.007166
900.114837231653,1.799406,0.007295
905.115435064902,1.797297,0.007425
910.115790215375,1.795184,0.007558
915.116994755789,1.793067,0.007692
920.117478225123,1.790946,0.007828
925.117691383722,1.78882,0.007965
930.118822679597,1.78669,0.008105
935.119310666242,1.784555,0.008246
940.119683300972,1.782415,0.008389
945.120510487027,1.780271,0.008533
950.120948864337,1.778121,0.00868
955.12160854803,1.775965,0.008828
960.12240012017,1.773804,0.008978
965.123247795394,1.771637,0.00913
970.123330840221,1.769464,0.009284
975.124112066925,1.767285,0.009439
980.124807828352,1.7651,0.009597
985.125400902343,1.762909,0.009756
990.125889715946,1.76071,0.009918
995.127087359318,1.758506,0.010081
1000.1274355926,1.756294,0.010246
1005.12777281518,1.754076,0.010414
1010.12898695467,1.75185,0.010583
1015.12952315928,1.749617,0.010754
1020.13029696487,1.747377,0.010928
1025.13058014124,1.74513,0.011103
1030.13134174607,1.742874,0.011281
1035.13187496609,1.740612,0.01146
1040.13233167471,1.738341,0.011642
1045.13288358905,1.736062,0.011826
1050.13372267323,1.733775,0.012012
1055.13416371257,1.73148,0.0122
1060.13532114406,1.729177,0.01239
1065.13562011079,1.726865,0.012583
1070.13620935316,1.724545,0.012778
1075.13736180366,1.722216,0.012975
1080.13749104967,1.719878,0.013174
1085.13876211921,1.717531,0.013376
1090.1386410191,1.715176,0.01358
1095.13934765022,1.712811,0.013786
1100.14026788416,1.710437,0.013995
1105.1407762188,1.708054,0.014206
1110.14122966047,1.705661,0.014419
1115.14200973771,1.703259,0.014635
1120.14251103431,1.700847,0.014854
1125.14313816939,1.698426,0.015074
1130.14432125264,1.695994,0.015298
1135.14443797534,1.693553,0.015523
1140.14496391533,1.691102,0.015752
1145.14638018306,1.68864,0.015983
1150.14706114237,1.686168,0.016216
1155.14748625002,1.683686,0.016452
1160.14816214755,1.681194,0.016691
1165.14852824827,1.678691,0.016932
1170.14911851912,1.676177,0.017177
1175.1493813881,1.673654,0.017423
1180.1510022242,1.671119,0.017673
1185.15120235501,1.668573,0.017925
1190.15168675208,1.666015,0.01818
1195.15192405002,1.663447,0.018438
1200.1525355158,1.660868,0.018699
1205.15417226318,1.658278,0.018963
1210.1539725744,1.655676,0.019229
1215.15494205475,1.653063,0.019499
1220.15539269324,1.650438,0.019771
1225.15600978544,1.647802,0.020046
1230.15628937244,1.645154,0.020325
1235.15694960062,1.642493,0.020606
1240.1575000025,1.639822,0.020891
1245.15869246287,1.637138,0.021178
1250.15879033022,1.634442,0.021469
1255.1598203097,1.631734,0.021763
1260.16004032512,1.629013,0.02206
1265.16153255954,1.62628,0.022361
1270.16255007667,1.623535,0.022664
1275.16260894156,1.620777,0.022971
1280.1638609742,1.618007,0.023281
1285.16320536286,1.615224,0.023595
1290.16416298519,1.612427,0.023912
1295.16496119205,1.609619,0.024232
1300.16514194343,1.606796,0.024556
1305.16698769564,1.603961,0.024884
1310.16732104594,1.601113,0.025215
1315.16705803493,1.598251,0.025549
1320.16855571431,1.595376,0.025887
1325.16858495506,1.592487,0.026229
1330.16953225232,1.589585,0.026575
1335.16955038165,1.586669,0.026924
1340.17108797034,1.58374,0.027277
1345.17083669626,1.580796,0.027634
1350.17274589204,1.577838,0.027994
1355.1734840636,1.574867,0.028359
1360.17410228509,1.571881,0.028727
1365.17418631765,1.568881,0.029099
1370.17482988837,1.565867,0.029476
1375.17563987255,1.562837,0.029856
1380.17621733768,1.559794,0.030241
1385.17615754368,1.556736,0.03063
1390.17660848479,1.553663,0.031023
1395.17718750281,1.550575,0.03142
1400.17908742199,1.547472,0.031821
1405.17876366933,1.544354,0.032227
1410.18059409544,1.541221,0.032637
1415.1810119229,1.538073,0.033052
1420.18123345031,1.534909,0.033471
1425.18251530922,1.53173,0.033894
1430.18285579835,1.528534,0.034323
1435.18352409314,1.525324,0.034756
1440.18415774198,1.522097,0.035193
1445.18438921147,1.518854,0.035635
1450.18554188405,1.515596,0.036083
1455.18556549802,1.512321,0.036534
1460.18579686696,1.50903,0.036991
1465.18761491088,1.505722,0.037453
1470.18721174253,1.502398,0.03792
1475.18769978979,1.499057,0.038392
1480.18874793937,1.4957,0.038869
1485.19002048125,1.492325,0.039352
1490.18938624627,1.488934,0.039839
1495.19007000866,1.485525,0.040332
1500.19175838202,1.482099,0.040831
1505.19230652513,1.478656,0.041335
1510.19319511818,1.475196,0.041844
1515.19409758583,1.471717,0.042359
1520.1946829965,1.468221,0.04288
1525.19461606301,1.464707,0.043406
1530.1954454473,1.461175,0.043939
1535.19496357007,1.457625,0.044477
1540.19664833336,1.454056,0.045021
1545.19637078233,1.450469,0.045572
1550.1976502004,1.446864,0.046128
1555.19825015113,1.443239,0.046691
1560.19980623325,1.439596,0.04726
1565.20004897561,1.435934,0.047835
1570.20063111935,1.432253,0.048417
1575.20125101467,1.428552,0.049006
1580.20160314001,1.424832,0.049601
1585.20137810249,1.421093,0.050203
1590.20230194607,1.417333,0.050811
1595.20409607245,1.413554,0.051427
1600.20441320891,1.409755,0.05205
1605.2050066862,1.405935,0.052679
1610.20558689397,1.402095,0.053316
1615.2058605921,1.398235,0.053961
1620.2055309113,1.394354,0.054613
1625.20642742929,1.390452,0.055272
1630.20828540214,1.386529,0.055939
1635.20868032066,1.382585,0.056614
1640.20947062239,1.378619,0.057296
1645.21038127751,1.374632,0.057987
1650.21113386806,1.370623,0.058686
1655.21144658806,1.366593,0.059393
1660.21103424453,1.36254,0.060108
1665.2118444907,1.358465,0.060832
1670.21362571051,1.354367,0.061564
1675.21385996293,1.350247,0.062305
1680.21452545457,1.346104,0.063055
1685.21536100982,1.341938,0.063814
1690.21610230714,1.337748,0.064583
1695.21648187896,1.333536,0.06536
1700.21622911236,1.329299,0.066147
1705.21741522044,1.325039,0.066944
1710.217445873,1.320754,0.06775
1715.21841369962,1.316446,0.068567
1720.22007718794,1.312113,0.069393
1725.21979161014,1.307755,0.07023
1730.21968208609,1.303372,0.071077
1735.22192648816,1.298965,0.071935
1740.22142914281,1.294531,0.072803
1745.2228044323,1.290072,0.073683
1750.22336519963,1.285587,0.074573
1755.2228496043,1.281076,0.075475
1760.22349160203,1.276539,0.076389
1765.22506619594,1.271975,0.077315
1770.22481855196,1.267384,0.078252
1775.22755840356,1.262767,0.079201
1780.22798403537,1.258121,0.080163
1785.22838685899,1.253448,0.081138
1790.22852844659,1.248747,0.082126
1795.22816770906,1.244019,0.083126
1800.22967446331,1.239261,0.08414
1805.23021780685,1.234475,0.085168
1810.22954878569,1.22966,0.086209
1815.23273040281,1.224815,0.087265
1820.23158043075,1.219941,0.088335
1825.23385808807,1.215037,0.08942
1830.23398951158,1.210103,0.09052
1835.23442899789,1.205138,0.091635
1840.23495645025,1.200142,0.092766
1845.23534935216,1.195116,0.093912
1850.23538276744,1.190057,0.095075
1855.23760506779,1.184967,0.096255
1860.23625000375,1.179845,0.097451
1865.23665190021,1.17469,0.098665
1870.23862133248,1.169503,0.099897
1875.23913079642,1.164282,0.101146
1880.24079212725,1.159028,0.102414
1885.24054301009,1.15374,0.103701
1890.24102097405,1.148417,0.105007
1895.24202546349,1.14306,0.106333
1900.24335374562,1.137668,0.107679
1905.24187352882,1.132241,0.109046
1910.24321709606,1.126777,0.110433
1915.24426314838,1.121278,0.111843
1920.24480024034,1.115742,0.113274
1925.24461474924,1.110168,0.114728
1930.24649559079,1.104558,0.116205
1935.2472512466,1.09891,0.117706
1940.24666168044,1.093223,0.119231
1945.24755628276,1.087498,0.120781
1950.24975779156,1.081733,0.122357
1955.25000394204,1.075929,0.123959
1960.25116508477,1.070085,0.125588
1965.24994334058,1.0642,0.127244
1970.25236708344,1.058275,0.128928
1975.25200392502,1.052308,0.130641
1980.25177943189,1.046299,0.132385
1985.25468095837,1.040247,0.134158
1990.25417471864,1.034154,0.135963
1995.25322820709,1.028016,0.137801
2000.2548711852,1.021835,0.139671
