Wavelength (nm),ITOsput4pt9E20_n,ITOsput4pt9E20_k
250,2.323,0.3236
255,2.316,0.3012
260,2.309,0.2799
265,2.301,0.2597
270,2.292,0.2405
275,2.284,0.2223
280,2.275,0.2051
285,2.265,0.1888
290,2.256,0.1734
295,2.246,0.1588
300,2.236,0.145
305,2.226,0.1321
310,2.216,0.1199
315,2.205,0.1084
320,2.195,0.09763
325,2.185,0.08757
330,2.174,0.07816
335,2.164,0.0694
340,2.153,0.06127
345,2.143,0.05374
350,2.132,0.0468
355,2.122,0.04043
360,2.112,0.03462
365,2.101,0.02935
370,2.091,0.02461
375,2.081,0.02038
380,2.071,0.01665
385,2.062,0.01341
390,2.052,0.01064
395,2.043,0.00835
400,2.034,0.00651
405,2.025,0.00511
410,2.016,0.00415
415,2.008,0.00362
420,2,0.0035
425,1.993,0.00364
430,1.986,0.00378
435,1.979,0.00392
440,1.973,0.00407
445,1.967,0.00422
450,1.961,0.00438
455,1.956,0.00454
460,1.95,0.00471
465,1.945,0.00488
470,1.94,0.00505
475,1.935,0.00522
480,1.93,0.0054
485,1.925,0.00559
490,1.92,0.00577
495,1.916,0.00597
500,1.911,0.00617
505,1.907,0.00637
510,1.902,0.00657
515,1.898,0.00678
520,1.893,0.007
525,1.889,0.00722
530,1.885,0.00744
535,1.881,0.00767
540,1.876,0.00791
545,1.872,0.00814
550,1.868,0.00839
555,1.864,0.00864
560,1.86,0.00889
565,1.856,0.00915
570,1.852,0.00942
575,1.848,0.00969
580,1.844,0.00996
585,1.84,0.01024
590,1.836,0.01053
595,1.832,0.01082
600,1.828,0.01112
605,1.824,0.01143
610,1.82,0.01174
615,1.816,0.01205
620,1.812,0.01237
625,1.808,0.0127
630,1.804,0.01304
635,1.801,0.01338
640,1.797,0.01372
645,1.793,0.01408
650,1.789,0.01444
655,1.785,0.01481
660,1.781,0.01518
665,1.777,0.01556
670,1.773,0.01595
675,1.769,0.01634
680,1.765,0.01675
685,1.761,0.01716
690,1.757,0.01757
695,1.753,0.018
700,1.749,0.01843
705,1.745,0.01887
710,1.741,0.01932
715,1.737,0.01977
720,1.733,0.02024
725,1.729,0.02071
730,1.724,0.02119
735,1.72,0.02167
740,1.716,0.02217
745,1.712,0.02268
750,1.708,0.02319
755,1.704,0.02371
760,1.699,0.02425
765,1.695,0.02479
770,1.691,0.02534
775,1.687,0.0259
780,1.682,0.02647
785,1.678,0.02705
790,1.674,0.02764
795,1.669,0.02824
800,1.665,0.02884
805,1.66,0.02947
810,1.656,0.0301
815,1.651,0.03074
820,1.647,0.03139
825,1.642,0.03205
830,1.638,0.03272
835,1.633,0.03341
840,1.628,0.03411
845,1.624,0.03481
850,1.619,0.03553
855,1.614,0.03627
860,1.61,0.03701
865,1.605,0.03777
870,1.6,0.03854
875,1.595,0.03932
880,1.59,0.04011
885,1.586,0.04092
890,1.581,0.04175
895,1.576,0.04258
900,1.571,0.04343
905,1.566,0.0443
910,1.561,0.04518
915,1.556,0.04607
920,1.55,0.04698
925,1.545,0.0479
930,1.54,0.04884
935,1.535,0.0498
940,1.53,0.05077
945,1.524,0.05176
950,1.519,0.05276
955,1.514,0.05378
960,1.508,0.05482
965,1.503,0.05588
970,1.497,0.05695
975,1.492,0.05804
980,1.486,0.05915
985,1.48,0.06028
990,1.475,0.06143
995,1.469,0.0626
1000,1.463,0.06379
1005,1.458,0.065
1010,1.452,0.06624
1015,1.446,0.06749
1020,1.44,0.06876
1025,1.434,0.07006
1030,1.428,0.07138
1035,1.422,0.07272
1040,1.416,0.07409
1045,1.41,0.07548
1050,1.404,0.0769
1055,1.397,0.07834
1060,1.391,0.07981
1065,1.385,0.0813
1070,1.378,0.08282
1075,1.372,0.08437
1080,1.365,0.08595
1085,1.359,0.08755
1090,1.352,0.08919
1095,1.346,0.09086
1100,1.339,0.09255
1105,1.332,0.09428
1110,1.325,0.09605
1115,1.318,0.09784
1120,1.312,0.09967
1125,1.305,0.1015
1130,1.298,0.1034
1135,1.29,0.1054
1140,1.283,0.1074
1145,1.276,0.1094
1150,1.269,0.1114
1155,1.262,0.1135
1160,1.254,0.1157
1165,1.247,0.1179
1170,1.239,0.1201
1175,1.232,0.1224
1180,1.224,0.1247
1185,1.216,0.1271
1190,1.208,0.1295
1195,1.201,0.132
1200,1.193,0.1345
1205,1.185,0.1371
1210,1.177,0.1397
1215,1.168,0.1424
1220,1.16,0.1452
1225,1.152,0.148
1230,1.144,0.1509
1235,1.135,0.1539
1240,1.127,0.1569
1245,1.118,0.16
1250,1.109,0.1632
1255,1.101,0.1664
1260,1.092,0.1698
1265,1.083,0.1732
1270,1.074,0.1767
1275,1.065,0.1803
1280,1.056,0.184
1285,1.046,0.1877
1290,1.037,0.1916
1295,1.028,0.1956
1300,1.018,0.1997
1305,1.009,0.2039
1310,0.9991,0.2082
1315,0.9893,0.2126
1320,0.9795,0.2171
1325,0.9696,0.2218
1330,0.9596,0.2266
1335,0.9496,0.2316
1340,0.9394,0.2367
1345,0.9292,0.2419
1350,0.9189,0.2474
1355,0.9085,0.2529
1360,0.8981,0.2587
1365,0.8875,0.2646
1370,0.8769,0.2707
1375,0.8663,0.277
1380,0.8556,0.2835
1385,0.8448,0.2902
1390,0.8339,0.2971
1395,0.8231,0.3042
1400,0.8122,0.3116
1405,0.8012,0.3192
1410,0.7903,0.327
1415,0.7793,0.3351
1420,0.7683,0.3434
1425,0.7573,0.352
1430,0.7464,0.3609
1435,0.7355,0.3701
1440,0.7246,0.3795
1445,0.7138,0.3892
1450,0.7031,0.3991
1455,0.6925,0.4094
1460,0.682,0.4199
1465,0.6716,0.4307
1470,0.6614,0.4418
1475,0.6513,0.4532
1480,0.6414,0.4648
1485,0.6317,0.4766
1490,0.6222,0.4887
1495,0.6129,0.501
1500,0.6038,0.5136
1505,0.595,0.5263
1510,0.5865,0.5392
1515,0.5782,0.5523
1520,0.5702,0.5655
1525,0.5624,0.5789
1530,0.5549,0.5923
1535,0.5477,0.6059
1540,0.5408,0.6196
1545,0.5342,0.6333
1550,0.5278,0.647
1555,0.5217,0.6608
1560,0.5159,0.6747
1565,0.5103,0.6885
1570,0.5049,0.7023
1575,0.4998,0.7162
1580,0.495,0.73
1585,0.4903,0.7437
1590,0.4859,0.7575
1595,0.4817,0.7711
1600,0.4777,0.7848
1605,0.4739,0.7984
1610,0.4703,0.8119
1615,0.4668,0.8253
1620,0.4636,0.8387
1625,0.4605,0.8521
1630,0.4575,0.8653
1635,0.4547,0.8785
1640,0.4521,0.8916
1645,0.4496,0.9046
1650,0.4472,0.9175
1655,0.4449,0.9304
1660,0.4428,0.9432
1665,0.4408,0.9559
1670,0.4389,0.9685
1675,0.4371,0.9811
1680,0.4354,0.9935
1685,0.4338,1.006
1690,0.4323,1.018
1695,0.4308,1.03
1700,0.4295,1.043
1705,0.4283,1.055
1710,0.4271,1.067
1715,0.426,1.079
1720,0.4249,1.091
1725,0.424,1.102
1730,0.4231,1.114
1735,0.4223,1.126
1740,0.4215,1.137
1745,0.4208,1.149
1750,0.4201,1.16
1755,0.4195,1.172
1760,0.419,1.183
1765,0.4185,1.194
1770,0.418,1.205
1775,0.4176,1.217
1780,0.4173,1.228
1785,0.417,1.239
1790,0.4167,1.25
1795,0.4165,1.261
1800,0.4163,1.271
1805,0.4161,1.282
1810,0.416,1.293
1815,0.4159,1.304
1820,0.4159,1.314
1825,0.4159,1.325
1830,0.4159,1.335
1835,0.416,1.346
1840,0.416,1.356
1845,0.4162,1.367
1850,0.4163,1.377
1855,0.4165,1.387
1860,0.4167,1.398
1865,0.4169,1.408
1870,0.4172,1.418
1875,0.4174,1.428
1880,0.4177,1.438
1885,0.4181,1.448
1890,0.4184,1.458
1895,0.4188,1.468
1900,0.4192,1.478
1905,0.4196,1.488
1910,0.42,1.498
1915,0.4205,1.508
1920,0.421,1.517
1925,0.4215,1.527
1930,0.422,1.537
1935,0.4225,1.547
1940,0.4231,1.556
1945,0.4236,1.566
1950,0.4242,1.575
1955,0.4248,1.585
1960,0.4254,1.594
1965,0.4261,1.604
1970,0.4267,1.613
1975,0.4274,1.623
1980,0.4281,1.632
1985,0.4288,1.641
1990,0.4295,1.65
1995,0.4302,1.66
2000,0.4309,1.669
